Frequency [Hz], |S00| [-], |S10| [-], Arg(S00) [-], Arg(S10) [-], Delay 0>0 [s], Delay 0>1 [s], |Z0| [Ohm] , Arg(Z0) [-]
2.000000e+08, 7.649876e-02, 1.004896e+00, 2.589365e+00, -3.334498e-01, 4.133151e-10, 2.688869e-10, 4.389472e+01, 8.055799e-02
2.038000e+08, 7.631989e-02, 1.004933e+00, 2.579496e+00, -3.398697e-01, 4.150690e-10, 2.687636e-10, 4.394345e+01, 8.164579e-02
2.076000e+08, 7.613909e-02, 1.004973e+00, 2.569586e+00, -3.462868e-01, 4.167956e-10, 2.686490e-10, 4.399291e+01, 8.272271e-02
2.114000e+08, 7.595641e-02, 1.005014e+00, 2.559635e+00, -3.527010e-01, 4.184979e-10, 2.685428e-10, 4.404310e+01, 8.378841e-02
2.152000e+08, 7.577191e-02, 1.005058e+00, 2.549643e+00, -3.591128e-01, 4.201785e-10, 2.684447e-10, 4.409400e+01, 8.484261e-02
2.190000e+08, 7.558565e-02, 1.005105e+00, 2.539610e+00, -3.655222e-01, 4.218395e-10, 2.683544e-10, 4.414561e+01, 8.588499e-02
2.228000e+08, 7.539767e-02, 1.005153e+00, 2.529538e+00, -3.719295e-01, 4.234833e-10, 2.682717e-10, 4.419791e+01, 8.691528e-02
2.266000e+08, 7.520804e-02, 1.005204e+00, 2.519427e+00, -3.783348e-01, 4.251116e-10, 2.681963e-10, 4.425090e+01, 8.793322e-02
2.304000e+08, 7.501680e-02, 1.005257e+00, 2.509277e+00, -3.847382e-01, 4.267263e-10, 2.681280e-10, 4.430457e+01, 8.893854e-02
2.342000e+08, 7.482401e-02, 1.005312e+00, 2.499089e+00, -3.911401e-01, 4.283290e-10, 2.680664e-10, 4.435891e+01, 8.993101e-02
2.380000e+08, 7.462973e-02, 1.005369e+00, 2.488862e+00, -3.975405e-01, 4.299211e-10, 2.680115e-10, 4.441391e+01, 9.091038e-02
2.418000e+08, 7.443400e-02, 1.005428e+00, 2.478597e+00, -4.039395e-01, 4.315040e-10, 2.679629e-10, 4.446956e+01, 9.187644e-02
2.456000e+08, 7.423688e-02, 1.005490e+00, 2.468294e+00, -4.103375e-01, 4.330788e-10, 2.679205e-10, 4.452586e+01, 9.282896e-02
2.494000e+08, 7.403842e-02, 1.005553e+00, 2.457954e+00, -4.167344e-01, 4.346467e-10, 2.678841e-10, 4.458279e+01, 9.376774e-02
2.532000e+08, 7.383868e-02, 1.005619e+00, 2.447577e+00, -4.231304e-01, 4.362087e-10, 2.678534e-10, 4.464034e+01, 9.469257e-02
2.570000e+08, 7.363770e-02, 1.005686e+00, 2.437162e+00, -4.295257e-01, 4.377657e-10, 2.678282e-10, 4.469852e+01, 9.560327e-02
2.608000e+08, 7.343554e-02, 1.005756e+00, 2.426709e+00, -4.359204e-01, 4.393185e-10, 2.678083e-10, 4.475730e+01, 9.649965e-02
2.646000e+08, 7.323225e-02, 1.005827e+00, 2.416220e+00, -4.423146e-01, 4.408679e-10, 2.677936e-10, 4.481668e+01, 9.738153e-02
2.684000e+08, 7.302787e-02, 1.005900e+00, 2.405694e+00, -4.487085e-01, 4.424146e-10, 2.677838e-10, 4.487665e+01, 9.824874e-02
2.722000e+08, 7.282246e-02, 1.005975e+00, 2.395131e+00, -4.551021e-01, 4.439592e-10, 2.677788e-10, 4.493720e+01, 9.910111e-02
2.760000e+08, 7.261606e-02, 1.006052e+00, 2.384531e+00, -4.614956e-01, 4.455023e-10, 2.677783e-10, 4.499832e+01, 9.993849e-02
2.798000e+08, 7.240873e-02, 1.006130e+00, 2.373894e+00, -4.678891e-01, 4.470443e-10, 2.677821e-10, 4.506001e+01, 1.007607e-01
2.836000e+08, 7.220051e-02, 1.006210e+00, 2.363220e+00, -4.742827e-01, 4.485859e-10, 2.677901e-10, 4.512225e+01, 1.015676e-01
2.874000e+08, 7.199145e-02, 1.006291e+00, 2.352510e+00, -4.806765e-01, 4.501274e-10, 2.678020e-10, 4.518503e+01, 1.023591e-01
2.912000e+08, 7.178159e-02, 1.006374e+00, 2.341763e+00, -4.870706e-01, 4.516691e-10, 2.678177e-10, 4.524836e+01, 1.031350e-01
2.950000e+08, 7.157098e-02, 1.006458e+00, 2.330978e+00, -4.934650e-01, 4.532114e-10, 2.678369e-10, 4.531220e+01, 1.038952e-01
2.988000e+08, 7.135966e-02, 1.006543e+00, 2.320158e+00, -4.998599e-01, 4.547548e-10, 2.678595e-10, 4.537657e+01, 1.046395e-01
3.026000e+08, 7.114768e-02, 1.006630e+00, 2.309300e+00, -5.062553e-01, 4.562993e-10, 2.678853e-10, 4.544145e+01, 1.053678e-01
3.064000e+08, 7.093509e-02, 1.006717e+00, 2.298405e+00, -5.126514e-01, 4.578453e-10, 2.679140e-10, 4.550682e+01, 1.060800e-01
3.102000e+08, 7.072192e-02, 1.006806e+00, 2.287474e+00, -5.190481e-01, 4.593929e-10, 2.679455e-10, 4.557269e+01, 1.067760e-01
3.140000e+08, 7.050822e-02, 1.006896e+00, 2.276505e+00, -5.254456e-01, 4.609425e-10, 2.679796e-10, 4.563904e+01, 1.074557e-01
3.178000e+08, 7.029402e-02, 1.006986e+00, 2.265500e+00, -5.318439e-01, 4.624941e-10, 2.680161e-10, 4.570586e+01, 1.081189e-01
3.216000e+08, 7.007938e-02, 1.007077e+00, 2.254457e+00, -5.382431e-01, 4.640480e-10, 2.680549e-10, 4.577314e+01, 1.087656e-01
3.254000e+08, 6.986432e-02, 1.007170e+00, 2.243377e+00, -5.446432e-01, 4.656042e-10, 2.680956e-10, 4.584088e+01, 1.093956e-01
3.292000e+08, 6.964889e-02, 1.007262e+00, 2.232260e+00, -5.510443e-01, 4.671628e-10, 2.681382e-10, 4.590906e+01, 1.100089e-01
3.330000e+08, 6.943313e-02, 1.007355e+00, 2.221106e+00, -5.574464e-01, 4.687240e-10, 2.681824e-10, 4.597768e+01, 1.106053e-01
3.368000e+08, 6.921708e-02, 1.007449e+00, 2.209915e+00, -5.638496e-01, 4.702879e-10, 2.682281e-10, 4.604672e+01, 1.111847e-01
3.406000e+08, 6.900077e-02, 1.007543e+00, 2.198687e+00, -5.702538e-01, 4.718545e-10, 2.682751e-10, 4.611618e+01, 1.117471e-01
3.444000e+08, 6.878423e-02, 1.007637e+00, 2.187420e+00, -5.766592e-01, 4.734238e-10, 2.683232e-10, 4.618605e+01, 1.122924e-01
3.482000e+08, 6.856751e-02, 1.007732e+00, 2.176117e+00, -5.830657e-01, 4.749960e-10, 2.683723e-10, 4.625632e+01, 1.128204e-01
3.520000e+08, 6.835064e-02, 1.007826e+00, 2.164776e+00, -5.894734e-01, 4.765711e-10, 2.684221e-10, 4.632697e+01, 1.133311e-01
3.558000e+08, 6.813366e-02, 1.007921e+00, 2.153397e+00, -5.958822e-01, 4.781490e-10, 2.684725e-10, 4.639801e+01, 1.138245e-01
3.596000e+08, 6.791659e-02, 1.008015e+00, 2.141981e+00, -6.022923e-01, 4.797298e-10, 2.685233e-10, 4.646941e+01, 1.143003e-01
3.634000e+08, 6.769947e-02, 1.008109e+00, 2.130527e+00, -6.087036e-01, 4.813135e-10, 2.685744e-10, 4.654117e+01, 1.147587e-01
3.672000e+08, 6.748234e-02, 1.008203e+00, 2.119035e+00, -6.151161e-01, 4.829001e-10, 2.686256e-10, 4.661328e+01, 1.151994e-01
3.710000e+08, 6.726522e-02, 1.008297e+00, 2.107505e+00, -6.215298e-01, 4.844896e-10, 2.686767e-10, 4.668574e+01, 1.156224e-01
3.748000e+08, 6.704815e-02, 1.008390e+00, 2.095937e+00, -6.279448e-01, 4.860821e-10, 2.687277e-10, 4.675852e+01, 1.160277e-01
3.786000e+08, 6.683116e-02, 1.008483e+00, 2.084332e+00, -6.343610e-01, 4.876774e-10, 2.687783e-10, 4.683162e+01, 1.164152e-01
3.824000e+08, 6.661427e-02, 1.008575e+00, 2.072688e+00, -6.407783e-01, 4.892755e-10, 2.688284e-10, 4.690504e+01, 1.167848e-01
3.862000e+08, 6.639752e-02, 1.008667e+00, 2.061006e+00, -6.471969e-01, 4.908765e-10, 2.688779e-10, 4.697876e+01, 1.171364e-01
3.900000e+08, 6.618094e-02, 1.008758e+00, 2.049286e+00, -6.536167e-01, 4.924803e-10, 2.689266e-10, 4.705276e+01, 1.174701e-01
3.938000e+08, 6.596455e-02, 1.008848e+00, 2.037527e+00, -6.600376e-01, 4.940868e-10, 2.689745e-10, 4.712705e+01, 1.177857e-01
3.976000e+08, 6.574838e-02, 1.008937e+00, 2.025730e+00, -6.664597e-01, 4.956961e-10, 2.690213e-10, 4.720161e+01, 1.180832e-01
4.014000e+08, 6.553247e-02, 1.009025e+00, 2.013895e+00, -6.728828e-01, 4.973081e-10, 2.690671e-10, 4.727643e+01, 1.183625e-01
4.052000e+08, 6.531682e-02, 1.009113e+00, 2.002021e+00, -6.793071e-01, 4.989227e-10, 2.691116e-10, 4.735150e+01, 1.186236e-01
4.090000e+08, 6.510148e-02, 1.009199e+00, 1.990109e+00, -6.857324e-01, 5.005400e-10, 2.691547e-10, 4.742681e+01, 1.188665e-01
4.128000e+08, 6.488647e-02, 1.009284e+00, 1.978158e+00, -6.921588e-01, 5.021598e-10, 2.691964e-10, 4.750235e+01, 1.190911e-01
4.166000e+08, 6.467181e-02, 1.009368e+00, 1.966168e+00, -6.985862e-01, 5.037822e-10, 2.692366e-10, 4.757811e+01, 1.192974e-01
4.204000e+08, 6.445753e-02, 1.009450e+00, 1.954140e+00, -7.050145e-01, 5.054071e-10, 2.692752e-10, 4.765408e+01, 1.194852e-01
4.242000e+08, 6.424365e-02, 1.009532e+00, 1.942073e+00, -7.114437e-01, 5.070344e-10, 2.693120e-10, 4.773025e+01, 1.196547e-01
4.280000e+08, 6.403020e-02, 1.009612e+00, 1.929967e+00, -7.178739e-01, 5.086641e-10, 2.693471e-10, 4.780660e+01, 1.198057e-01
4.318000e+08, 6.381719e-02, 1.009690e+00, 1.917822e+00, -7.243048e-01, 5.102962e-10, 2.693803e-10, 4.788314e+01, 1.199383e-01
4.356000e+08, 6.360466e-02, 1.009767e+00, 1.905638e+00, -7.307366e-01, 5.119306e-10, 2.694116e-10, 4.795983e+01, 1.200523e-01
4.394000e+08, 6.339263e-02, 1.009843e+00, 1.893415e+00, -7.371691e-01, 5.135672e-10, 2.694409e-10, 4.803669e+01, 1.201479e-01
4.432000e+08, 6.318111e-02, 1.009917e+00, 1.881153e+00, -7.436023e-01, 5.152061e-10, 2.694681e-10, 4.811369e+01, 1.202249e-01
4.470000e+08, 6.297013e-02, 1.009989e+00, 1.868852e+00, -7.500361e-01, 5.168471e-10, 2.694933e-10, 4.819082e+01, 1.202833e-01
4.508000e+08, 6.275971e-02, 1.010060e+00, 1.856512e+00, -7.564706e-01, 5.184903e-10, 2.695163e-10, 4.826807e+01, 1.203231e-01
4.546000e+08, 6.254987e-02, 1.010130e+00, 1.844132e+00, -7.629056e-01, 5.201355e-10, 2.695372e-10, 4.834544e+01, 1.203443e-01
4.584000e+08, 6.234064e-02, 1.010197e+00, 1.831713e+00, -7.693411e-01, 5.217829e-10, 2.695559e-10, 4.842290e+01, 1.203469e-01
4.622000e+08, 6.213203e-02, 1.010263e+00, 1.819255e+00, -7.757770e-01, 5.234322e-10, 2.695723e-10, 4.850046e+01, 1.203308e-01
4.660000e+08, 6.192406e-02, 1.010327e+00, 1.806758e+00, -7.822134e-01, 5.250834e-10, 2.695865e-10, 4.857809e+01, 1.202962e-01
4.698000e+08, 6.171676e-02, 1.010390e+00, 1.794221e+00, -7.886500e-01, 5.267366e-10, 2.695985e-10, 4.865579e+01, 1.202429e-01
4.736000e+08, 6.151015e-02, 1.010451e+00, 1.781644e+00, -7.950870e-01, 5.283916e-10, 2.696081e-10, 4.873355e+01, 1.201709e-01
4.774000e+08, 6.130423e-02, 1.010510e+00, 1.769028e+00, -8.015242e-01, 5.300485e-10, 2.696155e-10, 4.881134e+01, 1.200803e-01
4.812000e+08, 6.109904e-02, 1.010567e+00, 1.756373e+00, -8.079615e-01, 5.317071e-10, 2.696206e-10, 4.888917e+01, 1.199711e-01
4.850000e+08, 6.089459e-02, 1.010622e+00, 1.743678e+00, -8.143990e-01, 5.333675e-10, 2.696235e-10, 4.896702e+01, 1.198432e-01
4.888000e+08, 6.069091e-02, 1.010676e+00, 1.730943e+00, -8.208366e-01, 5.350296e-10, 2.696241e-10, 4.904488e+01, 1.196967e-01
4.926000e+08, 6.048800e-02, 1.010728e+00, 1.718169e+00, -8.272742e-01, 5.366934e-10, 2.696225e-10, 4.912273e+01, 1.195315e-01
4.964000e+08, 6.028589e-02, 1.010778e+00, 1.705354e+00, -8.337117e-01, 5.383587e-10, 2.696186e-10, 4.920057e+01, 1.193478e-01
5.002000e+08, 6.008460e-02, 1.010826e+00, 1.692501e+00, -8.401491e-01, 5.400256e-10, 2.696126e-10, 4.927838e+01, 1.191455e-01
5.040000e+08, 5.988414e-02, 1.010873e+00, 1.679607e+00, -8.465864e-01, 5.416940e-10, 2.696044e-10, 4.935615e+01, 1.189246e-01
5.078000e+08, 5.968453e-02, 1.010917e+00, 1.666673e+00, -8.530235e-01, 5.433639e-10, 2.695941e-10, 4.943387e+01, 1.186852e-01
5.116000e+08, 5.948580e-02, 1.010960e+00, 1.653700e+00, -8.594604e-01, 5.450352e-10, 2.695817e-10, 4.951153e+01, 1.184272e-01
5.154000e+08, 5.928795e-02, 1.011002e+00, 1.640687e+00, -8.658970e-01, 5.467079e-10, 2.695672e-10, 4.958911e+01, 1.181508e-01
5.192000e+08, 5.909102e-02, 1.011041e+00, 1.627633e+00, -8.723332e-01, 5.483819e-10, 2.695508e-10, 4.966660e+01, 1.178559e-01
5.230000e+08, 5.889500e-02, 1.011079e+00, 1.614540e+00, -8.787690e-01, 5.500572e-10, 2.695324e-10, 4.974400e+01, 1.175426e-01
5.268000e+08, 5.869993e-02, 1.011115e+00, 1.601407e+00, -8.852044e-01, 5.517337e-10, 2.695121e-10, 4.982128e+01, 1.172109e-01
5.306000e+08, 5.850581e-02, 1.011150e+00, 1.588234e+00, -8.916393e-01, 5.534113e-10, 2.694900e-10, 4.989844e+01, 1.168608e-01
5.344000e+08, 5.831267e-02, 1.011183e+00, 1.575020e+00, -8.980737e-01, 5.550901e-10, 2.694661e-10, 4.997546e+01, 1.164924e-01
5.382000e+08, 5.812053e-02, 1.011214e+00, 1.561767e+00, -9.045074e-01, 5.567698e-10, 2.694404e-10, 5.005233e+01, 1.161057e-01
5.420000e+08, 5.792939e-02, 1.011243e+00, 1.548473e+00, -9.109406e-01, 5.584506e-10, 2.694132e-10, 5.012904e+01, 1.157009e-01
5.458000e+08, 5.773929e-02, 1.011272e+00, 1.535140e+00, -9.173732e-01, 5.601322e-10, 2.693843e-10, 5.020557e+01, 1.152778e-01
5.496000e+08, 5.755023e-02, 1.011298e+00, 1.521766e+00, -9.238050e-01, 5.618146e-10, 2.693540e-10, 5.028192e+01, 1.148367e-01
5.534000e+08, 5.736223e-02, 1.011323e+00, 1.508352e+00, -9.302361e-01, 5.634978e-10, 2.693222e-10, 5.035807e+01, 1.143775e-01
5.572000e+08, 5.717531e-02, 1.011347e+00, 1.494898e+00, -9.366665e-01, 5.651816e-10, 2.692891e-10, 5.043401e+01, 1.139002e-01
5.610000e+08, 5.698948e-02, 1.011369e+00, 1.481404e+00, -9.430961e-01, 5.668659e-10, 2.692546e-10, 5.050972e+01, 1.134051e-01
5.648000e+08, 5.680477e-02, 1.011390e+00, 1.467869e+00, -9.495248e-01, 5.685508e-10, 2.692190e-10, 5.058519e+01, 1.128921e-01
5.686000e+08, 5.662119e-02, 1.011410e+00, 1.454294e+00, -9.559527e-01, 5.702360e-10, 2.691822e-10, 5.066041e+01, 1.123612e-01
5.724000e+08, 5.643876e-02, 1.011428e+00, 1.440679e+00, -9.623798e-01, 5.719215e-10, 2.691444e-10, 5.073538e+01, 1.118127e-01
5.762000e+08, 5.625749e-02, 1.011445e+00, 1.427024e+00, -9.688059e-01, 5.736071e-10, 2.691056e-10, 5.081006e+01, 1.112465e-01
5.800000e+08, 5.607741e-02, 1.011461e+00, 1.413329e+00, -9.752311e-01, 5.752927e-10, 2.690659e-10, 5.088446e+01, 1.106627e-01
5.838000e+08, 5.589852e-02, 1.011476e+00, 1.399593e+00, -9.816553e-01, 5.769783e-10, 2.690254e-10, 5.095855e+01, 1.100613e-01
5.876000e+08, 5.572085e-02, 1.011489e+00, 1.385817e+00, -9.880786e-01, 5.786636e-10, 2.689842e-10, 5.103234e+01, 1.094426e-01
5.914000e+08, 5.554442e-02, 1.011502e+00, 1.372001e+00, -9.945009e-01, 5.803486e-10, 2.689424e-10, 5.110579e+01, 1.088065e-01
5.952000e+08, 5.536923e-02, 1.011513e+00, 1.358144e+00, -1.000922e+00, 5.820330e-10, 2.688999e-10, 5.117891e+01, 1.081532e-01
5.990000e+08, 5.519532e-02, 1.011524e+00, 1.344247e+00, -1.007342e+00, 5.837168e-10, 2.688571e-10, 5.125167e+01, 1.074828e-01
6.028000e+08, 5.502268e-02, 1.011533e+00, 1.330311e+00, -1.013762e+00, 5.853997e-10, 2.688138e-10, 5.132407e+01, 1.067952e-01
6.066000e+08, 5.485136e-02, 1.011542e+00, 1.316333e+00, -1.020180e+00, 5.870817e-10, 2.687702e-10, 5.139609e+01, 1.060907e-01
6.104000e+08, 5.468135e-02, 1.011550e+00, 1.302316e+00, -1.026597e+00, 5.887624e-10, 2.687264e-10, 5.146772e+01, 1.053693e-01
6.142000e+08, 5.451268e-02, 1.011557e+00, 1.288259e+00, -1.033013e+00, 5.904417e-10, 2.686824e-10, 5.153895e+01, 1.046312e-01
6.180000e+08, 5.434536e-02, 1.011563e+00, 1.274161e+00, -1.039428e+00, 5.921194e-10, 2.686384e-10, 5.160976e+01, 1.038764e-01
6.218000e+08, 5.417942e-02, 1.011568e+00, 1.260024e+00, -1.045842e+00, 5.937953e-10, 2.685944e-10, 5.168014e+01, 1.031050e-01
6.256000e+08, 5.401487e-02, 1.011573e+00, 1.245846e+00, -1.052255e+00, 5.954692e-10, 2.685505e-10, 5.175008e+01, 1.023172e-01
6.294000e+08, 5.385172e-02, 1.011578e+00, 1.231629e+00, -1.058667e+00, 5.971408e-10, 2.685067e-10, 5.181956e+01, 1.015131e-01
6.332000e+08, 5.369000e-02, 1.011581e+00, 1.217372e+00, -1.065078e+00, 5.988099e-10, 2.684632e-10, 5.188858e+01, 1.006927e-01
6.370000e+08, 5.352973e-02, 1.011585e+00, 1.203074e+00, -1.071488e+00, 6.004762e-10, 2.684199e-10, 5.195712e+01, 9.985626e-02
6.408000e+08, 5.337092e-02, 1.011587e+00, 1.188737e+00, -1.077897e+00, 6.021395e-10, 2.683771e-10, 5.202517e+01, 9.900383e-02
6.446000e+08, 5.321359e-02, 1.011590e+00, 1.174361e+00, -1.084305e+00, 6.037994e-10, 2.683347e-10, 5.209271e+01, 9.813555e-02
6.484000e+08, 5.305776e-02, 1.011592e+00, 1.159944e+00, -1.090711e+00, 6.054558e-10, 2.682928e-10, 5.215973e+01, 9.725154e-02
6.522000e+08, 5.290344e-02, 1.011593e+00, 1.145488e+00, -1.097117e+00, 6.071081e-10, 2.682515e-10, 5.222623e+01, 9.635195e-02
6.560000e+08, 5.275066e-02, 1.011594e+00, 1.130993e+00, -1.103522e+00, 6.087563e-10, 2.682109e-10, 5.229218e+01, 9.543688e-02
6.598000e+08, 5.259943e-02, 1.011595e+00, 1.116458e+00, -1.109926e+00, 6.103999e-10, 2.681709e-10, 5.235757e+01, 9.450649e-02
6.636000e+08, 5.244977e-02, 1.011596e+00, 1.101884e+00, -1.116329e+00, 6.120385e-10, 2.681317e-10, 5.242240e+01, 9.356090e-02
6.674000e+08, 5.230170e-02, 1.011597e+00, 1.087271e+00, -1.122731e+00, 6.136719e-10, 2.680934e-10, 5.248665e+01, 9.260027e-02
6.712000e+08, 5.215524e-02, 1.011597e+00, 1.072619e+00, -1.129132e+00, 6.152996e-10, 2.680559e-10, 5.255031e+01, 9.162472e-02
6.750000e+08, 5.201040e-02, 1.011598e+00, 1.057928e+00, -1.135532e+00, 6.169213e-10, 2.680193e-10, 5.261336e+01, 9.063441e-02
6.788000e+08, 5.186721e-02, 1.011598e+00, 1.043198e+00, -1.141931e+00, 6.185366e-10, 2.679837e-10, 5.267580e+01, 8.962948e-02
6.826000e+08, 5.172569e-02, 1.011598e+00, 1.028430e+00, -1.148330e+00, 6.201450e-10, 2.679491e-10, 5.273761e+01, 8.861009e-02
6.864000e+08, 5.158584e-02, 1.011599e+00, 1.013623e+00, -1.154727e+00, 6.217462e-10, 2.679156e-10, 5.279878e+01, 8.757638e-02
6.902000e+08, 5.144770e-02, 1.011599e+00, 9.987785e-01, -1.161124e+00, 6.233396e-10, 2.678832e-10, 5.285929e+01, 8.652852e-02
6.940000e+08, 5.131127e-02, 1.011599e+00, 9.838956e-01, -1.167520e+00, 6.249250e-10, 2.678519e-10, 5.291915e+01, 8.546665e-02
6.978000e+08, 5.117658e-02, 1.011600e+00, 9.689748e-01, -1.173915e+00, 6.265017e-10, 2.678217e-10, 5.297832e+01, 8.439094e-02
7.016000e+08, 5.104365e-02, 1.011600e+00, 9.540164e-01, -1.180310e+00, 6.280694e-10, 2.677928e-10, 5.303681e+01, 8.330155e-02
7.054000e+08, 5.091249e-02, 1.011601e+00, 9.390206e-01, -1.186704e+00, 6.296274e-10, 2.677652e-10, 5.309460e+01, 8.219865e-02
7.092000e+08, 5.078313e-02, 1.011602e+00, 9.239875e-01, -1.193097e+00, 6.311755e-10, 2.677387e-10, 5.315168e+01, 8.108241e-02
7.130000e+08, 5.065558e-02, 1.011603e+00, 9.089175e-01, -1.199489e+00, 6.327129e-10, 2.677136e-10, 5.320804e+01, 7.995298e-02
7.168000e+08, 5.052986e-02, 1.011604e+00, 8.938108e-01, -1.205881e+00, 6.342392e-10, 2.676898e-10, 5.326367e+01, 7.881056e-02
7.206000e+08, 5.040600e-02, 1.011606e+00, 8.786676e-01, -1.212273e+00, 6.357539e-10, 2.676672e-10, 5.331855e+01, 7.765530e-02
7.244000e+08, 5.028400e-02, 1.011608e+00, 8.634883e-01, -1.218664e+00, 6.372564e-10, 2.676461e-10, 5.337267e+01, 7.648739e-02
7.282000e+08, 5.016389e-02, 1.011610e+00, 8.482731e-01, -1.225054e+00, 6.387461e-10, 2.676262e-10, 5.342603e+01, 7.530701e-02
7.320000e+08, 5.004568e-02, 1.011612e+00, 8.330223e-01, -1.231444e+00, 6.402225e-10, 2.676078e-10, 5.347861e+01, 7.411434e-02
7.358000e+08, 4.992940e-02, 1.011615e+00, 8.177363e-01, -1.237833e+00, 6.416850e-10, 2.675907e-10, 5.353040e+01, 7.290956e-02
7.396000e+08, 4.981506e-02, 1.011618e+00, 8.024154e-01, -1.244222e+00, 6.431330e-10, 2.675749e-10, 5.358139e+01, 7.169285e-02
7.434000e+08, 4.970268e-02, 1.011621e+00, 7.870599e-01, -1.250611e+00, 6.445658e-10, 2.675606e-10, 5.363158e+01, 7.046442e-02
7.472000e+08, 4.959229e-02, 1.011625e+00, 7.716702e-01, -1.256999e+00, 6.459830e-10, 2.675476e-10, 5.368094e+01, 6.922444e-02
7.510000e+08, 4.948389e-02, 1.011629e+00, 7.562466e-01, -1.263387e+00, 6.473838e-10, 2.675360e-10, 5.372948e+01, 6.797311e-02
7.548000e+08, 4.937750e-02, 1.011633e+00, 7.407896e-01, -1.269775e+00, 6.487676e-10, 2.675257e-10, 5.377717e+01, 6.671062e-02
7.586000e+08, 4.927315e-02, 1.011638e+00, 7.252996e-01, -1.276162e+00, 6.501338e-10, 2.675168e-10, 5.382402e+01, 6.543718e-02
7.624000e+08, 4.917086e-02, 1.011643e+00, 7.097769e-01, -1.282550e+00, 6.514818e-10, 2.675093e-10, 5.387000e+01, 6.415298e-02
7.662000e+08, 4.907063e-02, 1.011649e+00, 6.942220e-01, -1.288937e+00, 6.528109e-10, 2.675030e-10, 5.391512e+01, 6.285821e-02
7.700000e+08, 4.897249e-02, 1.011655e+00, 6.786355e-01, -1.295324e+00, 6.541203e-10, 2.674981e-10, 5.395936e+01, 6.155310e-02
7.738000e+08, 4.887646e-02, 1.011661e+00, 6.630176e-01, -1.301710e+00, 6.554096e-10, 2.674945e-10, 5.400270e+01, 6.023783e-02
7.776000e+08, 4.878254e-02, 1.011667e+00, 6.473690e-01, -1.308097e+00, 6.566779e-10, 2.674922e-10, 5.404515e+01, 5.891262e-02
7.814000e+08, 4.869077e-02, 1.011674e+00, 6.316901e-01, -1.314484e+00, 6.579247e-10, 2.674911e-10, 5.408670e+01, 5.757767e-02
7.852000e+08, 4.860116e-02, 1.011682e+00, 6.159814e-01, -1.320870e+00, 6.591492e-10, 2.674913e-10, 5.412733e+01, 5.623321e-02
7.890000e+08, 4.851371e-02, 1.011690e+00, 6.002435e-01, -1.327257e+00, 6.603508e-10, 2.674926e-10, 5.416703e+01, 5.487943e-02
7.928000e+08, 4.842846e-02, 1.011698e+00, 5.844769e-01, -1.333644e+00, 6.615288e-10, 2.674952e-10, 5.420580e+01, 5.351656e-02
