Frequency [Hz], |S00| [-], |S10| [-], |S20| [-], |S30| [-], Arg(S00) [-], Arg(S10) [-], Arg(S20) [-], Arg(S30) [-], Delay 0>0 [s], Delay 0>1 [s], Delay 0>2 [s], Delay 0>3 [s], |Z0| [Ohm] , Arg(Z0) [-]
2.000000e+08, 6.558071e-02, 9.884189e-01, 2.708699e-02, 1.137369e-02, 2.526752e+00, -4.267120e-01, 1.064880e+00, -2.139035e+00, 6.153562e-10, 3.292405e-10, 3.051399e-10, 3.757467e-10, 4.492224e+01, 7.583870e-02
2.038000e+08, 6.548057e-02, 9.883558e-01, 2.760859e-02, 1.160066e-02, 2.512060e+00, -4.345730e-01, 1.057594e+00, -2.148007e+00, 6.121173e-10, 3.294485e-10, 3.068176e-10, 3.761753e-10, 4.498035e+01, 7.728345e-02
2.076000e+08, 6.537791e-02, 9.882924e-01, 2.812756e-02, 1.182712e-02, 2.497445e+00, -4.424389e-01, 1.050269e+00, -2.156988e+00, 6.090495e-10, 3.296466e-10, 3.083742e-10, 3.765994e-10, 4.503930e+01, 7.869535e-02
2.114000e+08, 6.527264e-02, 9.882287e-01, 2.864397e-02, 1.205306e-02, 2.482903e+00, -4.503096e-01, 1.042906e+00, -2.165980e+00, 6.061445e-10, 3.298355e-10, 3.098196e-10, 3.770184e-10, 4.509909e+01, 8.007462e-02
2.152000e+08, 6.516468e-02, 9.881647e-01, 2.915786e-02, 1.227845e-02, 2.468431e+00, -4.581848e-01, 1.035509e+00, -2.174982e+00, 6.033947e-10, 3.300158e-10, 3.111632e-10, 3.774316e-10, 4.515969e+01, 8.142144e-02
2.190000e+08, 6.505397e-02, 9.881004e-01, 2.966927e-02, 1.250329e-02, 2.454024e+00, -4.660643e-01, 1.028079e+00, -2.183993e+00, 6.007935e-10, 3.301881e-10, 3.124130e-10, 3.778386e-10, 4.522110e+01, 8.273599e-02
2.228000e+08, 6.494045e-02, 9.880359e-01, 3.017823e-02, 1.272755e-02, 2.439679e+00, -4.739479e-01, 1.020620e+00, -2.193015e+00, 5.983346e-10, 3.303530e-10, 3.135764e-10, 3.782388e-10, 4.528330e+01, 8.401840e-02
2.266000e+08, 6.482404e-02, 9.879712e-01, 3.068479e-02, 1.295123e-02, 2.425393e+00, -4.818354e-01, 1.013133e+00, -2.202046e+00, 5.960126e-10, 3.305110e-10, 3.146603e-10, 3.786317e-10, 4.534628e+01, 8.526882e-02
2.304000e+08, 6.470470e-02, 9.879063e-01, 3.118898e-02, 1.317429e-02, 2.411163e+00, -4.897268e-01, 1.005620e+00, -2.211086e+00, 5.938226e-10, 3.306626e-10, 3.156707e-10, 3.790170e-10, 4.541003e+01, 8.648735e-02
2.342000e+08, 6.458236e-02, 9.878412e-01, 3.169081e-02, 1.339674e-02, 2.396985e+00, -4.976217e-01, 9.980834e-01, -2.220135e+00, 5.917599e-10, 3.308082e-10, 3.166130e-10, 3.793942e-10, 4.547452e+01, 8.767409e-02
2.380000e+08, 6.445698e-02, 9.877759e-01, 3.219033e-02, 1.361856e-02, 2.382856e+00, -5.055201e-01, 9.905239e-01, -2.229194e+00, 5.898206e-10, 3.309481e-10, 3.174924e-10, 3.797630e-10, 4.553975e+01, 8.882915e-02
2.418000e+08, 6.432851e-02, 9.877105e-01, 3.268755e-02, 1.383973e-02, 2.368773e+00, -5.134218e-01, 9.829434e-01, -2.238261e+00, 5.880010e-10, 3.310828e-10, 3.183134e-10, 3.801232e-10, 4.560570e+01, 8.995259e-02
2.456000e+08, 6.419691e-02, 9.876450e-01, 3.318250e-02, 1.406025e-02, 2.354734e+00, -5.213268e-01, 9.753434e-01, -2.247337e+00, 5.862978e-10, 3.312125e-10, 3.190803e-10, 3.804743e-10, 4.567235e+01, 9.104450e-02
2.494000e+08, 6.406212e-02, 9.875794e-01, 3.367521e-02, 1.428010e-02, 2.340735e+00, -5.292349e-01, 9.677250e-01, -2.256421e+00, 5.847081e-10, 3.313377e-10, 3.197969e-10, 3.808163e-10, 4.573970e+01, 9.210492e-02
2.532000e+08, 6.392413e-02, 9.875137e-01, 3.416568e-02, 1.449928e-02, 2.326775e+00, -5.371459e-01, 9.600895e-01, -2.265513e+00, 5.832290e-10, 3.314585e-10, 3.204667e-10, 3.811487e-10, 4.580772e+01, 9.313393e-02
2.570000e+08, 6.378289e-02, 9.874479e-01, 3.465395e-02, 1.471777e-02, 2.312850e+00, -5.450599e-01, 9.524380e-01, -2.274614e+00, 5.818584e-10, 3.315752e-10, 3.210930e-10, 3.814716e-10, 4.587641e+01, 9.413157e-02
2.608000e+08, 6.363836e-02, 9.873821e-01, 3.514002e-02, 1.493556e-02, 2.298957e+00, -5.529766e-01, 9.447715e-01, -2.283722e+00, 5.805939e-10, 3.316881e-10, 3.216788e-10, 3.817846e-10, 4.594575e+01, 9.509788e-02
2.646000e+08, 6.349053e-02, 9.873163e-01, 3.562393e-02, 1.515265e-02, 2.285095e+00, -5.608960e-01, 9.370911e-01, -2.292837e+00, 5.794337e-10, 3.317974e-10, 3.222269e-10, 3.820876e-10, 4.601571e+01, 9.603292e-02
2.684000e+08, 6.333936e-02, 9.872504e-01, 3.610567e-02, 1.536902e-02, 2.271260e+00, -5.688180e-01, 9.293976e-01, -2.301960e+00, 5.783760e-10, 3.319033e-10, 3.227398e-10, 3.823805e-10, 4.608630e+01, 9.693671e-02
2.722000e+08, 6.318484e-02, 9.871846e-01, 3.658528e-02, 1.558467e-02, 2.257451e+00, -5.767426e-01, 9.216918e-01, -2.311090e+00, 5.774194e-10, 3.320060e-10, 3.232198e-10, 3.826633e-10, 4.615748e+01, 9.780931e-02
2.760000e+08, 6.302693e-02, 9.871188e-01, 3.706276e-02, 1.579959e-02, 2.243664e+00, -5.846696e-01, 9.139746e-01, -2.320226e+00, 5.765623e-10, 3.321057e-10, 3.236693e-10, 3.829357e-10, 4.622925e+01, 9.865073e-02
2.798000e+08, 6.286563e-02, 9.870531e-01, 3.753813e-02, 1.601378e-02, 2.229898e+00, -5.925990e-01, 9.062466e-01, -2.329369e+00, 5.758038e-10, 3.322026e-10, 3.240901e-10, 3.831977e-10, 4.630160e+01, 9.946102e-02
2.836000e+08, 6.270092e-02, 9.869874e-01, 3.801140e-02, 1.622722e-02, 2.216150e+00, -6.005307e-01, 8.985086e-01, -2.338519e+00, 5.751426e-10, 3.322967e-10, 3.244842e-10, 3.834493e-10, 4.637450e+01, 1.002402e-01
2.874000e+08, 6.253279e-02, 9.869218e-01, 3.848259e-02, 1.643990e-02, 2.202418e+00, -6.084647e-01, 8.907612e-01, -2.347674e+00, 5.745778e-10, 3.323883e-10, 3.248533e-10, 3.836904e-10, 4.644794e+01, 1.009883e-01
2.912000e+08, 6.236123e-02, 9.868563e-01, 3.895171e-02, 1.665183e-02, 2.188699e+00, -6.164008e-01, 8.830049e-01, -2.356835e+00, 5.741088e-10, 3.324774e-10, 3.251992e-10, 3.839209e-10, 4.652190e+01, 1.017054e-01
2.950000e+08, 6.218622e-02, 9.867909e-01, 3.941877e-02, 1.686299e-02, 2.174992e+00, -6.243391e-01, 8.752404e-01, -2.366002e+00, 5.737347e-10, 3.325642e-10, 3.255232e-10, 3.841409e-10, 4.659637e+01, 1.023915e-01
2.988000e+08, 6.200777e-02, 9.867256e-01, 3.988378e-02, 1.707338e-02, 2.161293e+00, -6.322794e-01, 8.674682e-01, -2.375173e+00, 5.734552e-10, 3.326489e-10, 3.258268e-10, 3.843504e-10, 4.667133e+01, 1.030466e-01
3.026000e+08, 6.182588e-02, 9.866604e-01, 4.034676e-02, 1.728299e-02, 2.147602e+00, -6.402218e-01, 8.596887e-01, -2.384350e+00, 5.732695e-10, 3.327315e-10, 3.261113e-10, 3.845492e-10, 4.674677e+01, 1.036707e-01
3.064000e+08, 6.164054e-02, 9.865954e-01, 4.080773e-02, 1.749181e-02, 2.133914e+00, -6.481661e-01, 8.519025e-01, -2.393532e+00, 5.731776e-10, 3.328120e-10, 3.263781e-10, 3.847374e-10, 4.682267e+01, 1.042640e-01
3.102000e+08, 6.145177e-02, 9.865306e-01, 4.126668e-02, 1.769985e-02, 2.120229e+00, -6.561123e-01, 8.441098e-01, -2.402718e+00, 5.731789e-10, 3.328907e-10, 3.266282e-10, 3.849150e-10, 4.689901e+01, 1.048264e-01
3.140000e+08, 6.125955e-02, 9.864659e-01, 4.172363e-02, 1.790709e-02, 2.106544e+00, -6.640605e-01, 8.363112e-01, -2.411908e+00, 5.732734e-10, 3.329676e-10, 3.268627e-10, 3.850821e-10, 4.697577e+01, 1.053579e-01
3.178000e+08, 6.106392e-02, 9.864015e-01, 4.217859e-02, 1.811353e-02, 2.092856e+00, -6.720104e-01, 8.285070e-01, -2.421102e+00, 5.734609e-10, 3.330427e-10, 3.270826e-10, 3.852386e-10, 4.705295e+01, 1.058587e-01
3.216000e+08, 6.086487e-02, 9.863372e-01, 4.263158e-02, 1.831916e-02, 2.079164e+00, -6.799622e-01, 8.206976e-01, -2.430300e+00, 5.737414e-10, 3.331162e-10, 3.272889e-10, 3.853846e-10, 4.713052e+01, 1.063287e-01
3.254000e+08, 6.066242e-02, 9.862731e-01, 4.308260e-02, 1.852398e-02, 2.065465e+00, -6.879157e-01, 8.128832e-01, -2.439502e+00, 5.741149e-10, 3.331882e-10, 3.274825e-10, 3.855200e-10, 4.720847e+01, 1.067680e-01
3.292000e+08, 6.045658e-02, 9.862093e-01, 4.353167e-02, 1.872798e-02, 2.051758e+00, -6.958710e-01, 8.050642e-01, -2.448706e+00, 5.745816e-10, 3.332585e-10, 3.276643e-10, 3.856450e-10, 4.728677e+01, 1.071766e-01
3.330000e+08, 6.024739e-02, 9.861457e-01, 4.397879e-02, 1.893117e-02, 2.038039e+00, -7.038279e-01, 7.972408e-01, -2.457914e+00, 5.751415e-10, 3.333275e-10, 3.278350e-10, 3.857595e-10, 4.736542e+01, 1.075546e-01
3.368000e+08, 6.003484e-02, 9.860823e-01, 4.442397e-02, 1.913352e-02, 2.024307e+00, -7.117864e-01, 7.894134e-01, -2.467125e+00, 5.757948e-10, 3.333950e-10, 3.279953e-10, 3.858636e-10, 4.744440e+01, 1.079021e-01
3.406000e+08, 5.981898e-02, 9.860192e-01, 4.486723e-02, 1.933505e-02, 2.010559e+00, -7.197466e-01, 7.815822e-01, -2.476337e+00, 5.765420e-10, 3.334612e-10, 3.281459e-10, 3.859574e-10, 4.752368e+01, 1.082190e-01
3.444000e+08, 5.959983e-02, 9.859563e-01, 4.530858e-02, 1.953574e-02, 1.996793e+00, -7.277084e-01, 7.737473e-01, -2.485553e+00, 5.773831e-10, 3.335261e-10, 3.282876e-10, 3.860408e-10, 4.760325e+01, 1.085055e-01
3.482000e+08, 5.937741e-02, 9.858937e-01, 4.574802e-02, 1.973559e-02, 1.983008e+00, -7.356717e-01, 7.659091e-01, -2.494770e+00, 5.783188e-10, 3.335897e-10, 3.284209e-10, 3.861139e-10, 4.768310e+01, 1.087616e-01
3.520000e+08, 5.915175e-02, 9.858314e-01, 4.618556e-02, 1.993460e-02, 1.969200e+00, -7.436365e-01, 7.580677e-01, -2.503989e+00, 5.793493e-10, 3.336521e-10, 3.285464e-10, 3.861768e-10, 4.776320e+01, 1.089874e-01
3.558000e+08, 5.892290e-02, 9.857693e-01, 4.662121e-02, 2.013276e-02, 1.955367e+00, -7.516028e-01, 7.502233e-01, -2.513209e+00, 5.804752e-10, 3.337133e-10, 3.286647e-10, 3.862295e-10, 4.784355e+01, 1.091829e-01
3.596000e+08, 5.869089e-02, 9.857075e-01, 4.705499e-02, 2.033006e-02, 1.941508e+00, -7.595706e-01, 7.423760e-01, -2.522431e+00, 5.816969e-10, 3.337734e-10, 3.287762e-10, 3.862720e-10, 4.792411e+01, 1.093483e-01
3.634000e+08, 5.845575e-02, 9.856460e-01, 4.748689e-02, 2.052651e-02, 1.927619e+00, -7.675398e-01, 7.345261e-01, -2.531653e+00, 5.830150e-10, 3.338324e-10, 3.288815e-10, 3.863045e-10, 4.800487e+01, 1.094835e-01
3.672000e+08, 5.821752e-02, 9.855848e-01, 4.791694e-02, 2.072210e-02, 1.913699e+00, -7.755104e-01, 7.266737e-01, -2.540877e+00, 5.844302e-10, 3.338903e-10, 3.289810e-10, 3.863268e-10, 4.808582e+01, 1.095886e-01
3.710000e+08, 5.797626e-02, 9.855240e-01, 4.834513e-02, 2.091683e-02, 1.899745e+00, -7.834824e-01, 7.188189e-01, -2.550101e+00, 5.859431e-10, 3.339471e-10, 3.290752e-10, 3.863392e-10, 4.816694e+01, 1.096638e-01
3.748000e+08, 5.773200e-02, 9.854634e-01, 4.877148e-02, 2.111068e-02, 1.885755e+00, -7.914558e-01, 7.109619e-01, -2.559325e+00, 5.875543e-10, 3.340030e-10, 3.291644e-10, 3.863417e-10, 4.824820e+01, 1.097091e-01
3.786000e+08, 5.748480e-02, 9.854031e-01, 4.919600e-02, 2.130367e-02, 1.871726e+00, -7.994304e-01, 7.031027e-01, -2.568549e+00, 5.892645e-10, 3.340578e-10, 3.292490e-10, 3.863342e-10, 4.832960e+01, 1.097246e-01
3.824000e+08, 5.723471e-02, 9.853431e-01, 4.961869e-02, 2.149578e-02, 1.857657e+00, -8.074064e-01, 6.952416e-01, -2.577774e+00, 5.910746e-10, 3.341117e-10, 3.293294e-10, 3.863169e-10, 4.841111e+01, 1.097104e-01
3.862000e+08, 5.698177e-02, 9.852835e-01, 5.003956e-02, 2.168701e-02, 1.843545e+00, -8.153837e-01, 6.873785e-01, -2.586997e+00, 5.929853e-10, 3.341646e-10, 3.294059e-10, 3.862898e-10, 4.849271e+01, 1.096665e-01
3.900000e+08, 5.672605e-02, 9.852242e-01, 5.045862e-02, 2.187736e-02, 1.829386e+00, -8.233623e-01, 6.795135e-01, -2.596220e+00, 5.949974e-10, 3.342166e-10, 3.294789e-10, 3.862529e-10, 4.857438e+01, 1.095932e-01
3.938000e+08, 5.646761e-02, 9.851651e-01, 5.087588e-02, 2.206682e-02, 1.815180e+00, -8.313421e-01, 6.716469e-01, -2.605443e+00, 5.971117e-10, 3.342676e-10, 3.295486e-10, 3.862064e-10, 4.865611e+01, 1.094904e-01
3.976000e+08, 5.620650e-02, 9.851065e-01, 5.129134e-02, 2.225540e-02, 1.800923e+00, -8.393231e-01, 6.637785e-01, -2.614664e+00, 5.993291e-10, 3.343178e-10, 3.296154e-10, 3.861502e-10, 4.873788e+01, 1.093583e-01
4.014000e+08, 5.594279e-02, 9.850481e-01, 5.170502e-02, 2.244308e-02, 1.786614e+00, -8.473053e-01, 6.559086e-01, -2.623884e+00, 6.016506e-10, 3.343671e-10, 3.296795e-10, 3.860844e-10, 4.881967e+01, 1.091970e-01
4.052000e+08, 5.567655e-02, 9.849900e-01, 5.211691e-02, 2.262987e-02, 1.772249e+00, -8.552887e-01, 6.480371e-01, -2.633102e+00, 6.040770e-10, 3.344156e-10, 3.297411e-10, 3.860090e-10, 4.890146e+01, 1.090066e-01
4.090000e+08, 5.540784e-02, 9.849323e-01, 5.252703e-02, 2.281576e-02, 1.757826e+00, -8.632732e-01, 6.401642e-01, -2.642318e+00, 6.066092e-10, 3.344631e-10, 3.298005e-10, 3.859242e-10, 4.898323e+01, 1.087873e-01
4.128000e+08, 5.513673e-02, 9.848749e-01, 5.293538e-02, 2.300075e-02, 1.743342e+00, -8.712589e-01, 6.322898e-01, -2.651532e+00, 6.092482e-10, 3.345099e-10, 3.298579e-10, 3.858299e-10, 4.906496e+01, 1.085390e-01
4.166000e+08, 5.486330e-02, 9.848179e-01, 5.334198e-02, 2.318483e-02, 1.728796e+00, -8.792457e-01, 6.244141e-01, -2.660745e+00, 6.119950e-10, 3.345558e-10, 3.299135e-10, 3.857262e-10, 4.914664e+01, 1.082620e-01
4.204000e+08, 5.458763e-02, 9.847611e-01, 5.374682e-02, 2.336801e-02, 1.714184e+00, -8.872336e-01, 6.165371e-01, -2.669954e+00, 6.148506e-10, 3.346009e-10, 3.299676e-10, 3.856132e-10, 4.922823e+01, 1.079565e-01
4.242000e+08, 5.430979e-02, 9.847047e-01, 5.414991e-02, 2.355028e-02, 1.699504e+00, -8.952225e-01, 6.086587e-01, -2.679161e+00, 6.178159e-10, 3.346452e-10, 3.300202e-10, 3.854909e-10, 4.930974e+01, 1.076224e-01
4.280000e+08, 5.402987e-02, 9.846487e-01, 5.455126e-02, 2.373163e-02, 1.684753e+00, -9.032126e-01, 6.007791e-01, -2.688365e+00, 6.208919e-10, 3.346887e-10, 3.300717e-10, 3.853593e-10, 4.939112e+01, 1.072600e-01
4.318000e+08, 5.374795e-02, 9.845929e-01, 5.495088e-02, 2.391208e-02, 1.669928e+00, -9.112036e-01, 5.928983e-01, -2.697566e+00, 6.240796e-10, 3.347314e-10, 3.301220e-10, 3.852186e-10, 4.947238e+01, 1.068693e-01
4.356000e+08, 5.346411e-02, 9.845375e-01, 5.534876e-02, 2.409160e-02, 1.655027e+00, -9.191957e-01, 5.850163e-01, -2.706764e+00, 6.273801e-10, 3.347734e-10, 3.301715e-10, 3.850686e-10, 4.955347e+01, 1.064506e-01
4.394000e+08, 5.317845e-02, 9.844823e-01, 5.574492e-02, 2.427021e-02, 1.640048e+00, -9.271888e-01, 5.771331e-01, -2.715958e+00, 6.307943e-10, 3.348145e-10, 3.302201e-10, 3.849096e-10, 4.963440e+01, 1.060040e-01
4.432000e+08, 5.289106e-02, 9.844275e-01, 5.613937e-02, 2.444789e-02, 1.624987e+00, -9.351829e-01, 5.692487e-01, -2.725148e+00, 6.343231e-10, 3.348549e-10, 3.302681e-10, 3.847415e-10, 4.971513e+01, 1.055297e-01
4.470000e+08, 5.260203e-02, 9.843731e-01, 5.653210e-02, 2.462465e-02, 1.609842e+00, -9.431779e-01, 5.613632e-01, -2.734334e+00, 6.379676e-10, 3.348946e-10, 3.303156e-10, 3.845644e-10, 4.979565e+01, 1.050277e-01
4.508000e+08, 5.231146e-02, 9.843189e-01, 5.692312e-02, 2.480048e-02, 1.594610e+00, -9.511739e-01, 5.534765e-01, -2.743516e+00, 6.417287e-10, 3.349335e-10, 3.303627e-10, 3.843784e-10, 4.987593e+01, 1.044982e-01
4.546000e+08, 5.201945e-02, 9.842650e-01, 5.731243e-02, 2.497539e-02, 1.579288e+00, -9.591708e-01, 5.455888e-01, -2.752693e+00, 6.456072e-10, 3.349716e-10, 3.304095e-10, 3.841834e-10, 4.995597e+01, 1.039415e-01
4.584000e+08, 5.172610e-02, 9.842115e-01, 5.770005e-02, 2.514936e-02, 1.563873e+00, -9.671686e-01, 5.376999e-01, -2.761866e+00, 6.496040e-10, 3.350090e-10, 3.304561e-10, 3.839796e-10, 5.003573e+01, 1.033576e-01
4.622000e+08, 5.143152e-02, 9.841583e-01, 5.808597e-02, 2.532241e-02, 1.548363e+00, -9.751673e-01, 5.298099e-01, -2.771034e+00, 6.537201e-10, 3.350456e-10, 3.305026e-10, 3.837669e-10, 5.011520e+01, 1.027468e-01
4.660000e+08, 5.113582e-02, 9.841053e-01, 5.847020e-02, 2.549452e-02, 1.532755e+00, -9.831669e-01, 5.219187e-01, -2.780197e+00, 6.579561e-10, 3.350816e-10, 3.305491e-10, 3.835454e-10, 5.019435e+01, 1.021092e-01
4.698000e+08, 5.083910e-02, 9.840527e-01, 5.885274e-02, 2.566569e-02, 1.517045e+00, -9.911673e-01, 5.140265e-01, -2.789354e+00, 6.623128e-10, 3.351168e-10, 3.305956e-10, 3.833152e-10, 5.027317e+01, 1.014450e-01
4.736000e+08, 5.054149e-02, 9.840003e-01, 5.923360e-02, 2.583593e-02, 1.501232e+00, -9.991686e-01, 5.061332e-01, -2.798506e+00, 6.667908e-10, 3.351512e-10, 3.306422e-10, 3.830764e-10, 5.035165e+01, 1.007544e-01
4.774000e+08, 5.024310e-02, 9.839483e-01, 5.961277e-02, 2.600523e-02, 1.485312e+00, -1.007171e+00, 4.982387e-01, -2.807653e+00, 6.713908e-10, 3.351850e-10, 3.306890e-10, 3.828288e-10, 5.042975e+01, 1.000376e-01
4.812000e+08, 4.994405e-02, 9.838965e-01, 5.999027e-02, 2.617359e-02, 1.469281e+00, -1.015174e+00, 4.903432e-01, -2.816793e+00, 6.761133e-10, 3.352180e-10, 3.307361e-10, 3.825727e-10, 5.050745e+01, 9.929473e-02
4.850000e+08, 4.964446e-02, 9.838451e-01, 6.036609e-02, 2.634101e-02, 1.453139e+00, -1.023177e+00, 4.824465e-01, -2.825928e+00, 6.809585e-10, 3.352503e-10, 3.307835e-10, 3.823080e-10, 5.058475e+01, 9.852603e-02
4.888000e+08, 4.934446e-02, 9.837939e-01, 6.074024e-02, 2.650748e-02, 1.436880e+00, -1.031182e+00, 4.745487e-01, -2.835056e+00, 6.859270e-10, 3.352819e-10, 3.308312e-10, 3.820348e-10, 5.066161e+01, 9.773169e-02
4.926000e+08, 4.904418e-02, 9.837430e-01, 6.111272e-02, 2.667301e-02, 1.420503e+00, -1.039187e+00, 4.666497e-01, -2.844177e+00, 6.910188e-10, 3.353128e-10, 3.308793e-10, 3.817531e-10, 5.073802e+01, 9.691192e-02
4.964000e+08, 4.874375e-02, 9.836923e-01, 6.148354e-02, 2.683760e-02, 1.404004e+00, -1.047193e+00, 4.587496e-01, -2.853292e+00, 6.962339e-10, 3.353429e-10, 3.309278e-10, 3.814629e-10, 5.081395e+01, 9.606693e-02
5.002000e+08, 4.844330e-02, 9.836420e-01, 6.185269e-02, 2.700124e-02, 1.387380e+00, -1.055200e+00, 4.508483e-01, -2.862400e+00, 7.015724e-10, 3.353724e-10, 3.309769e-10, 3.811644e-10, 5.088939e+01, 9.519692e-02
5.040000e+08, 4.814297e-02, 9.835918e-01, 6.222017e-02, 2.716394e-02, 1.370630e+00, -1.063207e+00, 4.429459e-01, -2.871500e+00, 7.070340e-10, 3.354012e-10, 3.310264e-10, 3.808576e-10, 5.096432e+01, 9.430213e-02
5.078000e+08, 4.784291e-02, 9.835420e-01, 6.258599e-02, 2.732568e-02, 1.353748e+00, -1.071215e+00, 4.350423e-01, -2.880594e+00, 7.126182e-10, 3.354292e-10, 3.310764e-10, 3.805424e-10, 5.103872e+01, 9.338276e-02
5.116000e+08, 4.754325e-02, 9.834924e-01, 6.295015e-02, 2.748649e-02, 1.336734e+00, -1.079224e+00, 4.271375e-01, -2.889680e+00, 7.183244e-10, 3.354566e-10, 3.311270e-10, 3.802190e-10, 5.111256e+01, 9.243904e-02
5.154000e+08, 4.724415e-02, 9.834431e-01, 6.331265e-02, 2.764634e-02, 1.319583e+00, -1.087233e+00, 4.192314e-01, -2.898758e+00, 7.241519e-10, 3.354832e-10, 3.311781e-10, 3.798874e-10, 5.118583e+01, 9.147122e-02
5.192000e+08, 4.694575e-02, 9.833939e-01, 6.367350e-02, 2.780524e-02, 1.302293e+00, -1.095243e+00, 4.113242e-01, -2.907828e+00, 7.300995e-10, 3.355092e-10, 3.312298e-10, 3.795476e-10, 5.125851e+01, 9.047951e-02
5.230000e+08, 4.664820e-02, 9.833451e-01, 6.403268e-02, 2.796320e-02, 1.284861e+00, -1.103254e+00, 4.034157e-01, -2.916890e+00, 7.361661e-10, 3.355345e-10, 3.312822e-10, 3.791996e-10, 5.133058e+01, 8.946416e-02
5.268000e+08, 4.635167e-02, 9.832965e-01, 6.439021e-02, 2.812020e-02, 1.267284e+00, -1.111265e+00, 3.955060e-01, -2.925944e+00, 7.423502e-10, 3.355591e-10, 3.313351e-10, 3.788436e-10, 5.140201e+01, 8.842542e-02
5.306000e+08, 4.605632e-02, 9.832481e-01, 6.474608e-02, 2.827626e-02, 1.249560e+00, -1.119277e+00, 3.875950e-01, -2.934989e+00, 7.486497e-10, 3.355830e-10, 3.313886e-10, 3.784796e-10, 5.147279e+01, 8.736352e-02
5.344000e+08, 4.576229e-02, 9.831999e-01, 6.510029e-02, 2.843137e-02, 1.231685e+00, -1.127289e+00, 3.796827e-01, -2.944026e+00, 7.550628e-10, 3.356062e-10, 3.314427e-10, 3.781075e-10, 5.154289e+01, 8.627873e-02
5.382000e+08, 4.546977e-02, 9.831520e-01, 6.545285e-02, 2.858553e-02, 1.213657e+00, -1.135302e+00, 3.717692e-01, -2.953054e+00, 7.615870e-10, 3.356287e-10, 3.314975e-10, 3.777275e-10, 5.161230e+01, 8.517130e-02
5.420000e+08, 4.517892e-02, 9.831042e-01, 6.580374e-02, 2.873874e-02, 1.195473e+00, -1.143316e+00, 3.638543e-01, -2.962072e+00, 7.682194e-10, 3.356506e-10, 3.315528e-10, 3.773396e-10, 5.168101e+01, 8.404148e-02
5.458000e+08, 4.488990e-02, 9.830567e-01, 6.615298e-02, 2.889100e-02, 1.177131e+00, -1.151330e+00, 3.559381e-01, -2.971082e+00, 7.749570e-10, 3.356717e-10, 3.316088e-10, 3.769439e-10, 5.174898e+01, 8.288955e-02
5.496000e+08, 4.460290e-02, 9.830094e-01, 6.650056e-02, 2.904231e-02, 1.158628e+00, -1.159344e+00, 3.480206e-01, -2.980082e+00, 7.817962e-10, 3.356923e-10, 3.316653e-10, 3.765403e-10, 5.181619e+01, 8.171578e-02
